,Freq='1.71GHz' Phi='0deg',Freq='1.77GHz' Phi='0deg',Freq='1.83GHz' Phi='0deg',Freq='1.885GHz' Phi='0deg',Freq='1.9GHz' Phi='0deg',Freq='1.915GHz' Phi='0deg',Freq='2.01GHz' Phi='0deg',Freq='2.018GHz' Phi='0deg',Freq='2.025GHz' Phi='0deg',Freq='2.575GHz' Phi='0deg',Freq='2.6GHz' Phi='0deg',Freq='2.635GHz' Phi='0deg'
-180,-19.16519998,-18.84678292,-18.30314793,-16.36802065,-15.88489226,-15.4350987,-14.79608943,-14.91678948,-15.01400817,-14.19429466,-14.41440077,-15.63209739
-179,-18.77755397,-18.96123762,-18.7917903,-16.71680173,-16.1763948,-15.70624054,-15.09456842,-15.21369134,-15.31035964,-14.06388767,-14.05347395,-15.01807701
-178,-18.25074007,-18.91145519,-19.14109659,-17.16659944,-16.63681653,-16.20032429,-15.46828607,-15.55936061,-15.63388679,-14.07785077,-13.93232988,-14.7244981
-177,-17.66620856,-18.70768825,-19.28547543,-17.68609821,-17.22760867,-16.85993486,-15.78069037,-15.82743263,-15.86807311,-14.38986137,-14.1612467,-14.76660753
-176,-17.04910894,-18.33631876,-19.16461852,-18.172739,-17.83906148,-17.55991801,-15.97729227,-15.98307334,-15.9946692,-15.00615642,-14.63938844,-14.93860891
-175,-16.40794786,-17.80810081,-18.81536975,-18.5380505,-18.36258872,-18.17262518,-16.10148013,-16.08285213,-16.08016586,-15.59702697,-14.99964383,-14.91523415
-174,-15.76343811,-17.19086333,-18.3740655,-18.76434035,-18.73632123,-18.6074161,-16.22439531,-16.19868471,-16.19607264,-15.66355513,-14.90823199,-14.59102602
-173,-15.14895558,-16.5803086,-17.96998669,-18.83991051,-18.89235544,-18.77008699,-16.38229068,-16.36242843,-16.36972414,-15.18752242,-14.49607718,-14.2000303
-172,-14.59361341,-16.04618245,-17.64007567,-18.67054541,-18.70861319,-18.55245212,-16.57555966,-16.57010336,-16.59254922,-14.63222296,-14.13430831,-14.00203997
-171,-14.10747982,-15.60426364,-17.32734636,-18.1579899,-18.13656598,-17.97296414,-16.79562072,-16.80715461,-16.84443657,-14.31676021,-14.01851764,-14.07254097
-170,-13.67929546,-15.2235241,-16.94949939,-17.38669564,-17.35059213,-17.25596416,-17.02726666,-17.04883186,-17.0930984,-14.28066298,-14.13698785,-14.32344816
-169,-13.28659939,-14.85795067,-16.49120472,-16.60869823,-16.63678559,-16.67434814,-17.21941914,-17.23574633,-17.27360301,-14.43257897,-14.3734237,-14.57383376
-168,-12.91219123,-14.48588437,-16.03423247,-16.05361957,-16.1982694,-16.38650457,-17.27911224,-17.27926131,-17.30229706,-14.63671329,-14.55516287,-14.62792551
-167,-12.55719703,-14.13052224,-15.69893113,-15.82437818,-16.08964603,-16.39274602,-17.14544981,-17.13904855,-17.15562308,-14.71963781,-14.50150642,-14.40742586
-166,-12.2424509,-13.84644764,-15.5711395,-15.88979557,-16.22086218,-16.54063439,-16.88403733,-16.89865826,-16.93022078,-14.5450372,-14.18117567,-14.05072968
-165,-11.99837308,-13.68742866,-15.66631913,-16.09774231,-16.38263558,-16.58560008,-16.66531778,-16.72537003,-16.78986482,-14.18112139,-13.80174508,-13.80882321
-164,-11.85114594,-13.67987301,-15.92257886,-16.23000786,-16.35856117,-16.37679909,-16.65076272,-16.76152128,-16.86114675,-13.88393379,-13.63847169,-13.85779071
-163,-11.81248033,-13.81079298,-16.21637766,-16.15277371,-16.11630473,-16.01663307,-16.910698,-17.05291521,-17.16936629,-13.88765145,-13.8443732,-14.21709202
-162,-11.87527665,-14.02889653,-16.4191262,-15.94343403,-15.84127071,-15.75513894,-17.394713,-17.5240308,-17.61866958,-14.284417,-14.40817455,-14.77409555
-161,-12.01445593,-14.25999464,-16.48362704,-15.8127508,-15.76465235,-15.79733268,-17.93501247,-17.99402137,-18.02178659,-15.02836939,-15.19669985,-15.3846815
-160,-12.1920548,-14.43775745,-16.47761941,-15.94662212,-16.03524041,-16.23928945,-18.32435781,-18.2795111,-18.22165927,-15.97541728,-16.04157146,-15.98800591
-159,-12.36572432,-14.53581438,-16.52309687,-16.44309069,-16.70466753,-17.079655,-18.48025488,-18.35039753,-18.23001023,-16.92176593,-16.82307773,-16.5922141
-158,-12.49832952,-14.5748231,-16.71809295,-17.3199036,-17.74352225,-18.22785473,-18.50824975,-18.33672192,-18.18937132,-17.63464795,-17.46138193,-17.14435877
-157,-12.56474962,-14.59824863,-17.10467156,-18.5292044,-19.04790213,-19.50945252,-18.55352843,-18.3632454,-18.20463702,-17.93620951,-17.87844827,-17.5024309
-156,-12.55326126,-14.64115256,-17.67289313,-19.96584208,-20.45350603,-20.72285834,-18.64181292,-18.42400892,-18.24551299,-17.87366078,-18.07421347,-17.58050846
-155,-12.46295601,-14.7149437,-18.37410613,-21.48218523,-21.78848391,-21.75336339,-18.65697343,-18.39108005,-18.17667968,-17.71676157,-18.16809015,-17.41900038
-154,-12.30096328,-14.8101839,-19.12817579,-22.89871255,-22.91920487,-22.58212679,-18.454281,-18.13872132,-17.88760561,-17.70233326,-18.2343299,-17.06848956
-153,-12.08119245,-14.90757922,-19.8160304,-23.94502062,-23.67015354,-23.10620172,-18.01877378,-17.67828806,-17.40810094,-17.84258121,-18.154616,-16.55199674
-152,-11.82307519,-14.98662837,-20.26764479,-24.20833397,-23.74632859,-23.0697714,-17.48072597,-17.14186286,-16.87057993,-17.91456306,-17.74527246,-15.95453292
-151,-11.54847168,-15.0267177,-20.30232551,-23.49411561,-23.03614458,-22.39281638,-16.98437575,-16.65637558,-16.38979677,-17.63556765,-17.03148128,-15.42297509
-150,-11.27718707,-15.00392777,-19.85898983,-22.19744101,-21.88025407,-21.376903,-16.59409115,-16.27102069,-16.00492279,-16.9387516,-16.2326188,-15.06939117
-149,-11.0232649,-14.89247719,-19.07193408,-20.84296641,-20.70013623,-20.36502364,-16.29358307,-15.96579039,-15.69415231,-16.00073052,-15.53648064,-14.92638031
-148,-10.79383219,-14.67581293,-18.15908483,-19.6762387,-19.67964163,-19.48505342,-16.02832907,-15.69286584,-15.4149043,-15.04178043,-15.03058671,-14.9797897
-147,-10.59072541,-14.36027783,-17.27867463,-18.70568094,-18.79402936,-18.68366694,-15.75146538,-15.4157294,-15.13773788,-14.22817713,-14.75995821,-15.21435069
-146,-10.41376972,-13.97743514,-16.48929839,-17.82650535,-17.92623396,-17.84463041,-15.44762571,-15.12481426,-14.8565284,-13.67695284,-14.76360917,-15.61333366
-145,-10.26396974,-13.57068244,-15.77477611,-16.91897339,-16.97752207,-16.90215627,-15.1240846,-14.82575654,-14.57540751,-13.4581865,-15.04938745,-16.10246391
-144,-10.14508903,-13.17637084,-15.0830571,-15.92637964,-15.93917485,-15.88855623,-14.78596709,-14.51840304,-14.29071722,-13.57975627,-15.53114967,-16.49847242
-143,-10.06301183,-12.81137498,-14.36437192,-14.87869765,-14.88063588,-14.89041858,-14.42229553,-14.18803134,-13.98560671,-13.9653186,-15.97853704,-16.57904014
-142,-10.02338787,-12.47104917,-13.5991923,-13.85075579,-13.88492179,-13.98051138,-14.01323394,-13.81448877,-13.64006259,-14.43892751,-16.09193075,-16.27779834
-141,-10.02872487,-12.1356802,-12.80384679,-12.90779894,-13.00243857,-13.18707376,-13.54839882,-13.38855792,-13.24557522,-14.75911181,-15.74636498,-15.72483638
-140,-10.07609341,-11.78184924,-12.01471921,-12.08103445,-12.24292294,-12.49830742,-13.03780854,-12.9197121,-12.81065567,-14.73912554,-15.07893651,-15.06335462
-139,-10.15623449,-11.39402071,-11.26729251,-11.36995743,-11.58737086,-11.88068336,-12.50604623,-12.42901741,-12.35316602,-14.35266919,-14.27403743,-14.34459755
-138,-10.25445227,-10.97107395,-10.58382851,-10.7547872,-11.00447431,-11.29888545,-11.97696032,-11.9352338,-11.88777384,-13.69222361,-13.421249,-13.57746013
-137,-10.35326786,-10.52502052,-9.971556764,-10.20956329,-10.46520421,-10.7309502,-11.46219179,-11.44579784,-11.41891622,-12.87442355,-12.55465352,-12.79137366
-136,-10.43624404,-10.07410902,-9.426892013,-9.712303818,-9.952225138,-10.17378514,-10.95979216,-10.95738356,-10.94278965,-12.00682421,-11.7108888,-12.03007168
-135,-10.49172012,-9.635338742,-8.941311666,-9.250449122,-9.462092878,-9.638575745,-10.46093539,-10.46330607,-10.45502977,-11.17934229,-10.92782384,-11.31025329
-134,-10.51491865,-9.220035955,-8.506340759,-8.821086134,-9.001111037,-9.141193886,-9.959116454,-9.961873329,-9.958040173,-10.44454708,-10.21529244,-10.60611573
-133,-10.50751472,-8.833147559,-8.116468827,-8.427374382,-8.578583992,-8.693957633,-9.456354401,-9.460561186,-9.463382357,-9.802297157,-9.544383452,-9.875999352
-132,-10.47506316,-8.475020865,-7.769789914,-8.073865113,-8.201329885,-8.301830806,-8.963668169,-8.974435216,-8.988715637,-9.205754954,-8.868635409,-9.105291908
-131,-10.42370471,-8.144055648,-7.466916787,-7.763016972,-7.871221249,-7.962672216,-8.49695544,-8.521061382,-8.552251581,-8.591905845,-8.161470177,-8.325022475
-130,-10.35763396,-7.838986691,-7.209133106,-7.493829441,-7.585468554,-7.669744784,-8.071644162,-8.115431277,-8.168118785,-7.924504196,-7.438968704,-7.591969619
-129,-10.2781181,-7.560128913,-6.996693082,-7.262314983,-7.338461943,-7.414789526,-7.698905178,-7.767066855,-7.844225509,-7.219579984,-6.749571113,-6.955584075
-128,-10.184041,-7.309478455,-6.827809315,-7.062987955,-7.123968287,-7.190508454,-7.384301505,-7.479535873,-7.582412688,-6.532996569,-6.145131116,-6.438549165
-127,-10.07341008,-7.089984169,-6.698462753,-6.890513232,-6.936821787,-6.991868408,-7.128348043,-7.251571191,-7.379954493,-5.926767569,-5.658466099,-6.035047566
-126,-9.945064956,-6.904485192,-6.602893448,-6.74088146,-6.773687607,-6.816175444,-6.928044953,-7.0788581,-7.231507153,-5.443534844,-5.29616161,-5.719541278
-125,-9.799909924,-6.754753573,-6.534501651,-6.611815047,-6.632910988,-6.662295283,-6.778606471,-6.95580533,-7.130893382,-5.09852849,-5.042022941,-5.459985807
-124,-9.641290216,-6.640894767,-6.486856144,-6.502454283,-6.513780358,-6.529584314,-6.674899817,-6.87690119,-7.072378548,-4.882501193,-4.865656875,-5.231146141
-123,-9.474521738,-6.561169898,-6.454535048,-6.412615979,-6.415645365,-6.417020224,-6.612362244,-6.837484145,-7.051307005,-4.768772358,-4.733379857,-5.023303588
-122,-9.305891578,-6.51218041,-6.43360549,-6.341988719,-6.337248608,-6.322789102,-6.587356481,-6.833932924,-7.064138293,-4.721825579,-4.619065623,-4.842864918
-121,-9.141548871,-6.489301882,-6.421671848,-6.289548097,-6.276447364,-6.244343293,-6.597061363,-6.863407185,-7.108046393,-4.706838712,-4.511346915,-4.705786818
-120,-8.986613581,-6.4872436,-6.417554439,-6.253323604,-6.230322862,-6.178782632,-6.639069789,-6.923333467,-7.180301329,-4.698580705,-4.414164703,-4.628523983
-119,-8.844653686,-6.500620025,-6.420755052,-6.23050669,-6.195556873,-6.123350268,-6.710877926,-7.010829957,-7.27763954,-4.686635185,-4.341147008,-4.620962145
-118,-8.71752698,-6.524439285,-6.430893133,-6.21779761,-6.168908647,-6.075853979,-6.809413009,-7.122217175,-7.395773116,-4.674680451,-4.307611999,-4.683029487
-117,-8.605499681,-6.554441249,-6.447261226,-6.211851674,-6.147636209,-6.034893454,-6.930690423,-7.252701353,-7.52912298,-4.674736455,-4.324096928,-4.804569415
-116,-8.507533063,-6.587253654,-6.468580148,-6.209692192,-6.129755513,-5.999861252,-7.069639997,-7.396267947,-7.670810922,-4.69987579,-4.393100697,-4.967547406
-115,-8.42164382,-6.62037432,-6.492965505,-6.208993928,-6.114098203,-5.970759905,-7.22010929,-7.545792829,-7.812913463,-4.758660067,-4.50878097,-5.149872439
-114,-8.345269851,-6.652021399,-6.518066935,-6.20819307,-6.100192,-5.947919599,-7.375036973,-7.693362031,-7.946956038,-4.852578259,-4.658690193,-5.330100416
-113,-8.275597808,-6.680912912,-6.541314699,-6.206432393,-6.088029314,-5.931705385,-7.526782806,-7.830774988,-8.064595299,-4.976142372,-4.82672752,-5.491861222
-112,-8.209828113,-6.706038056,-6.560201673,-6.203389196,-6.077801851,-5.922280089,-7.667591197,-7.950181005,-8.15839569,-5.118745075,-4.99660243,-5.626549713
-111,-8.145367484,-6.726468949,-6.572537144,-6.199050506,-6.069666006,-5.919455456,-7.790146512,-8.044764156,-8.222565229,-5.26742835,-5.155024999,-5.733315472
-110,-8.079949482,-6.741240091,-6.576627091,-6.193495387,-6.063577546,-5.92263395,-7.888151811,-8.109360535,-8.253498653,-5.409816056,-5.293781518,-5.816620988
-109,-8.011691167,-6.749301441,-6.571359141,-6.18672548,-6.059206743,-5.930824106,-7.956839391,-8.14088433,-8.250005858,-5.536501529,-5.410136841,-5.882717612
-108,-7.939098785,-6.749534595,-6.556193704,-6.178562033,-6.055924859,-5.942704254,-7.993317083,-8.138470852,-8.21318051,-5.642313755,-5.505635752,-5.936551131
-107,-7.861037638,-6.7408122,-6.531081162,-6.16860819,-6.052842098,-5.956709975,-7.996679619,-8.103311846,-8.145959746,-5.726242738,-5.583985065,-5.979986643
-106,-7.776681059,-6.722077833,-6.496334868,-6.156263067,-6.048874688,-5.971125907,-7.967866392,-8.03823636,-8.052499773,-5.79028149,-5.648902637,-6.0114833
-105,-7.685451311,-6.692425709,-6.452490786,-6.140769127,-6.042821746,-5.984169411,-7.909307236,-7.947146682,-7.937515658,-5.837774242,-5.702585907,-6.026880498
-104,-7.586961964,-6.651164694,-6.400178724,-6.121274875,-6.03343806,-5.994060016,-7.824442524,-7.83443362,-7.805707348,-5.871882413,-5.745043891,-6.020798979
-103,-7.480967785,-6.597857611,-6.340020827,-6.096898607,-6.019494824,-5.999073422,-7.717217635,-7.704471326,-7.661340823,-5.894556652,-5.774210038,-5.988170647
-102,-7.367324971,-6.53233312,-6.272563526,-6.066783784,-5.999825386,-5.997581804,-7.591635483,-7.561247572,-7.507999927,-5.906122381,-5.786593207,-5.925495382
-101,-7.245962125,-6.454672646,-6.198241684,-6.030141302,-5.97335656,-5.988083477,-7.451417235,-7.40814174,-7.348487372,-5.905386893,-5.77818855,-5.831562425
-100,-7.116860794,-6.365178169,-6.117369072,-5.986277632,-5.939128082,-5.96922492,-7.299786327,-7.247832342,-7.184836218,-5.890089233,-5.745396358,-5.707558128
-99,-6.980043608,-6.264328224,-6.030147445,-5.934610289,-5.89630343,-5.939817485,-7.139364845,-7.082301527,-7.018391187,-5.857506194,-5.685752051,-5.556664668
-98,-6.83556786,-6.15272929,-5.936686524,-5.874673342,-5.844175042,-5.898850031,-6.972157549,-6.91290203,-6.849925621,-5.805057272,-5.598346433,-5.383370867
-97,-6.683522571,-6.031068519,-5.837028486,-5.806116034,-5.782166228,-5.845497905,-6.799595344,-6.740457131,-6.679769164,-5.730794611,-5.483904574,-5.192732525
-96,-6.524027493,-5.90007193,-5.731172245,-5.728697235,-5.709831253,-5.779128102,-6.622612914,-6.56537181,-6.507930106,-5.633711689,-5.344575328,-4.989755232
-95,-6.35723293,-5.760470362,-5.619094589,-5.6422778,-5.626854301,-5.699300312,-6.44174098,-6.387740758,-6.334203334,-5.513852364,-5.183538344,-4.778978349
-94,-6.183319706,-5.612973859,-5.500766673,-5.546812189,-5.533047527,-5.605763749,-6.257199699,-6.207444961,-6.158259855,-5.372243614,-5.00454877,-4.564259891
-93,-6.002498939,-5.45825404,-5.376165527,-5.442340053,-5.428348136,-5.498450052,-6.068984995,-6.024232953,-5.979717079,-5.210703576,-4.811517301,-4.348717729
-92,-5.815011507,-5.296933278,-5.245280977,-5.328977983,-5.31281435,-5.377462981,-5.876943563,-5.837785785,-5.798191044,-5.031586999,-4.608182754,-4.134769967
-91,-5.62112731,-5.129579223,-5.108118837,-5.206911325,-5.186620197,-5.243065979,-5.68083503,-5.647766513,-5.613332743,-4.837524343,-4.397894575,-3.924224246
-90,-5.421144436,-4.956703163,-4.964701451,-5.076385824,-5.050049127,-5.095668794,-5.480381541,-5.453856029,-5.424851212,-4.631194618,-4.183494853,-3.718379925
-89,-5.215388467,-4.778760879,-4.815066695,-4.937698748,-4.903486549,-4.935814321,-5.275306062,-5.25577749,-5.232526049,-4.415153043,-3.967275862,-3.518121425
-88,-5.004212067,-4.596154893,-4.659266497,-4.791189248,-4.747411362,-4.764166521,-5.065361203,-5.053311733,-5.036211947,-4.191718478,-3.750986807,-3.323992014
-87,-4.787995033,-4.409237296,-4.497365816,-4.637227692,-4.582386524,-4.581499892,-4.85035059,-4.846306034,-4.835837551,-3.962915001,-3.535867476,-3.136244601
-86,-4.567144914,-4.218312615,-4.329442823,-4.476203841,-4.409048559,-4.388690475,-4.630144802,-4.634678355,-4.631400734,-3.730456911,-3.32269304,-2.954870304
-85,-4.34209825,-4.023640447,-4.155590854,-4.308513831,-4.228095773,-4.186707911,-4.404693742,-4.418419086,-4.422962118,-3.495765442,-3.111820728,-2.779607628
-84,-4.113322449,-3.825437799,-3.975922457,-4.134546067,-4.040274849,-3.976607685,-4.17403712,-4.197592043,-4.210638522,-3.260006782,-2.903234482,-2.609936109
-83,-3.881318233,-3.623881321,-3.790575576,-3.954666358,-3.846365419,-3.75952241,-3.938314428,-3.972336261,-3.994597848,-3.024143047,-2.696587701,-2.445058747
-82,-3.64662253,-3.419109754,-3.599721632,-3.769202884,-3.647162271,-3.53665088,-3.697775449,-3.74286989,-3.775056803,-2.788989887,-2.491246818,-2.283878116
-81,-3.409811606,-3.211227131,-3.403574874,-3.578431939,-3.443455018,-3.309243679,-3.452791924,-3.509497137,-3.552282662,-2.555275746,-2.286340072,-2.124971938
-80,-3.171504168,-3.00030736,-3.202402076,-3.382565822,-3.236005359,-3.07858431,-3.203870497,-3.272618814,-3.326600029,-2.323698472,-2.08081634,-1.966575138
-79,-2.932364068,-2.786400943,-2.996531243,-3.181744663,-3.02552255,-2.845965174,-2.951666498,-3.032746455,-3.098403107,-2.094975049,-1.873518501,-1.806577166
-78,-2.693102186,-2.569544578,-2.786357811,-2.97603436,-2.812638262,-2.612658197,-2.696997491,-2.790519287,-2.868173335,-1.869879864,-1.663274323,-1.642545124
-77,-2.454476992,-2.349774312,-2.57234663,-2.765433016,-2.597882731,-2.379880537,-2.440854902,-2.546722504,-2.636501399,-1.649266408,-1.449005338,-1.471784725
-76,-2.217293257,-2.127142683,-2.355028167,-2.549888157,-2.381664797,-2.148756469,-2.184411499,-2.302304451,-2.404111523,-1.434066766,-1.229850574,-1.291451361
-75,-1.982398379,-1.901739869,-2.134987673,-2.329326439,-2.164259068,-1.920277388,-1.929022141,-2.058389538,-2.171884837,-1.22526277,-1.005297632,-1.098721397
-74,-1.750675818,-1.673718293,-1.912846759,-2.103696383,-1.945803864,-1.695262703,-1.676215102,-1.816283166,-1.940877552,-1.023822414,-0.775308842,-0.891028034
-73,-1.523035243,-1.443319367,-1.689237739,-1.873022884,-1.726313492,-1.474325261,-1.42767155,-1.577464817,-1.712328989,-0.830595072,-0.540425631,-0.666355539
-72,-1.300399145,-1.210900247,-1.464772316,-1.637469905,-1.505707723,-1.257845704,-1.185191352,-1.343565808,-1.487654365,-0.646159724,-0.301830663,-0.423570393
-71,-1.083685831,-0.976957648,-1.240007458,-1.397405282,-1.283859686,-1.045960648,-0.950644388,-1.116329189,-1.268417894,-0.470622823,-0.061345325,-0.162750009
-70,-0.873789008,-0.742145259,-1.015412583,-1.153459387,-1.060660878,-0.838569491,-0.725907743,-0.897550762,-1.056283196,-0.303368667,0.178659368,0.114546423
-69,-0.671554354,-0.507281057,-0.791343071,-0.906568199,-0.836098671,-0.635363809,-0.512790599,-0.6890021,-0.852940279,-0.142778321,0.41545653,0.405128558
-68,-0.477753719,-0.273341275,-0.568025458,-0.65799168,-0.610338104,-0.435881228,-0.312949972,-0.492338642,-0.660011138,0.014043014,0.646271433,0.704205269
-67,-0.293057731,-0.041438759,-0.345559123,-0.40930042,-0.383796698,-0.239582415,-0.127801743,-0.308998058,-0.478939099,0.171454059,0.868698396,1.005632704
-66,-0.118007582,0.187214898,-0.123937571,-0.162327267,-0.157199483,-0.045945479,0.041567689,-0.140096059,-0.310870087,0.335261413,1.081196666,1.302386375
-65,0.047013389,0.411362031,0.096910435,0.080914766,0.068397824,0.145432684,0.194483337,0.013671793,-0.156536564,0.512349297,1.283598846,1.587228625
-64,0.201808079,0.629762783,0.317063471,0.318342456,0.291626229,0.33474253,0.330751617,0.152113077,-0.01615665,0.70982634,1.477516509,1.853511114
-63,0.346394298,0.841264613,0.536541454,0.547930836,0.510864714,0.521891851,0.450713989,0.275597749,0.11063872,0.933679863,1.666476101,2.096024874
-62,0.481034658,1.044870547,0.755242055,0.767849108,0.724342273,0.706474648,0.555281958,0.385087316,0.22483952,1.187155119,1.855592764,2.31178295
-61,0.606269105,1.239798876,0.972891916,0.976593248,0.930271985,0.887789175,0.645953966,0.482131712,0.328044608,1.469329599,2.050641745,2.500586987
-60,0.722951418,1.425527917,1.189023433,1.17310662,1.127004874,1.064908104,0.724817571,0.568837245,0.422404756,1.774458035,2.256568274,2.665195683
-59,0.832289936,1.601821722,1.402983161,1.356883003,1.313190603,1.236795786,0.794541737,0.647814684,0.510530847,2.092480204,2.475775976,2.810911305
-58,0.935890126,1.768736176,1.613970909,1.528049487,1.487933976,1.402461191,0.858362173,0.722119916,0.595386029,2.410662548,2.706812247,2.944488584
-57,1.035792091,1.926609183,1.821101467,1.687428382,1.650939559,1.561131952,0.920055724,0.795197526,0.680184294,2.715930889,2.94409826,3.072496845
