,Freq='1.71GHz' Phi='0deg',Freq='1.77GHz' Phi='0deg',Freq='1.83GHz' Phi='0deg',Freq='1.885GHz' Phi='0deg',Freq='1.9GHz' Phi='0deg',Freq='1.915GHz' Phi='0deg',Freq='2.01GHz' Phi='0deg',Freq='2.018GHz' Phi='0deg',Freq='2.025GHz' Phi='0deg',Freq='2.575GHz' Phi='0deg',Freq='2.6GHz' Phi='0deg',Freq='2.635GHz' Phi='0deg'
-180,-20.16695601,-18.13687788,-16.93565464,-16.8849689,-16.91636905,-16.94983693,-17.19355247,-17.29135378,-17.38753824,-16.10498466,-15.90817797,-15.36979255
-179,-19.64077088,-18.02082717,-16.95484482,-16.86574911,-16.87073152,-16.86877097,-16.95017401,-17.030952,-17.1158233,-15.2484091,-15.02824046,-14.79876265
-178,-19.23327812,-17.96676573,-17.09120344,-16.99873215,-16.98684683,-16.958482,-16.88406391,-16.93899657,-16.99898303,-15.04448481,-14.65616395,-14.3994804
-177,-18.85081484,-17.95111949,-17.32257585,-17.26547037,-17.24973426,-17.21092782,-17.06617857,-17.10339539,-17.14142427,-15.2477711,-14.8243987,-14.54237695
-176,-18.42836508,-17.96259144,-17.63576471,-17.64308057,-17.6326099,-17.59757962,-17.50529396,-17.54610703,-17.57990594,-15.20988715,-15.04402431,-15.04387705
-175,-17.9664342,-18.00629588,-18.03246234,-18.12235205,-18.11733291,-18.08952563,-18.13798656,-18.2070717,-18.26187949,-14.63148314,-14.77175525,-15.28082482
-174,-17.52609856,-18.09989522,-18.52653107,-18.72310512,-18.71793809,-18.68888693,-18.86304085,-18.97145439,-19.06452178,-14.02456303,-14.21567764,-14.96939801
-173,-17.1893349,-18.26572832,-19.13415769,-19.49389224,-19.48883725,-19.4491187,-19.63405177,-19.76531069,-19.88785968,-13.95440628,-14.00880205,-14.63946263
-172,-17.02101581,-18.52420625,-19.86347373,-20.49382508,-20.50904305,-20.46573801,-20.5494003,-20.66865606,-20.78776242,-14.61371997,-14.50995256,-14.86485113
-171,-17.04963107,-18.89047482,-20.71038966,-21.76541077,-21.85139966,-21.84424258,-21.84518229,-21.92435622,-22.00665203,-15.81478438,-15.70443912,-15.84562134
-170,-17.25920402,-19.37258951,-21.66334038,-23.30684212,-23.54624755,-23.65912239,-23.82916613,-23.8634037,-23.89321618,-16.85732178,-17.09512812,-17.38264386
-169,-17.58371208,-19.96803241,-22.71228159,-25.0516678,-25.53869626,-25.89371691,-26.84478553,-26.86957553,-26.86144895,-16.93153661,-17.68445413,-18.61953748
-168,-17.90999155,-20.65659474,-23.84744504,-26.87808196,-27.6567521,-28.34142379,-31.01325549,-31.18959707,-31.26339874,-16.33154751,-17.21092923,-18.51490914
-167,-18.11119471,-21.39134285,-25.027431,-28.65985538,-29.66583932,-30.5792122,-33.81996595,-34.33829754,-34.78351164,-15.88240115,-16.55453642,-17.58547746
-166,-18.11737274,-22.09590404,-26.10880149,-30.234575,-31.36994364,-32.27542369,-32.26295097,-32.52413862,-32.8097641,-15.91331354,-16.31155903,-16.90438411
-165,-17.96696457,-22.68164747,-26.80121087,-31.09245839,-32.32215286,-33.22640768,-30.7887524,-30.83630151,-30.92484475,-16.28926066,-16.51369572,-16.83069204
-164,-17.77725827,-23.08683844,-26.83438002,-30.47838462,-31.61836463,-32.63506224,-30.62634383,-30.62362661,-30.65141472,-16.61486959,-16.8652831,-17.19933561
-163,-17.67146282,-23.30647974,-26.27104989,-28.71778935,-29.52509501,-30.40474508,-31.08919941,-31.21680045,-31.34827533,-16.60661637,-16.99503331,-17.51401469
-162,-17.73342429,-23.37623763,-25.43794956,-26.82671978,-27.30185391,-27.89431023,-30.7814697,-31.17024772,-31.5627474,-16.46512163,-16.86658025,-17.37186908
-161,-17.9995354,-23.32746425,-24.60357069,-25.30682596,-25.54743413,-25.89119433,-29.25608449,-29.74664572,-30.25936612,-16.64039491,-16.84726886,-17.01338228
-160,-18.46427056,-23.16450948,-23.88176572,-24.24697398,-24.34772334,-24.52240547,-27.60666581,-28.05888721,-28.5279208,-17.46305281,-17.33365913,-16.97435832
-159,-19.08506516,-22.88442576,-23.29698882,-23.59784559,-23.63786497,-23.71977368,-26.50640398,-26.91077336,-27.31759394,-19.04423072,-18.5271958,-17.53496686
-158,-19.78714014,-22.51257241,-22.85154625,-23.27759615,-23.32110561,-23.37670784,-26.02983762,-26.40537414,-26.76513029,-20.99476409,-20.25437513,-18.56147213
-157,-20.47756638,-22.1135177,-22.55725339,-23.20722418,-23.30007589,-23.3820548,-26.037531,-26.39073956,-26.70442314,-21.7378619,-21.43302212,-19.37212287
-156,-21.07518314,-21.7684545,-22.43807248,-23.32388291,-23.48637473,-23.62506294,-26.28708208,-26.5968479,-26.83773233,-20.46056858,-20.84127631,-19.22391699
-155,-21.54270497,-21.54535783,-22.51804484,-23.57827328,-23.79765113,-23.98846019,-26.41876021,-26.63245725,-26.75365341,-18.87387009,-19.51934512,-18.5065056
-154,-21.89085713,-21.48341065,-22.80693734,-23.91447611,-24.13843956,-24.32852322,-25.99137701,-26.05503716,-26.03344025,-17.96744655,-18.70862404,-18.06991565
-153,-22.14800366,-21.59208813,-23.28958745,-24.24347269,-24.3781918,-24.46391722,-24.7738751,-24.68948869,-24.56136864,-17.79264502,-18.64524327,-18.24694337
-152,-22.32623352,-21.85774742,-23.92092622,-24.44290568,-24.37333214,-24.23613125,-23.00761343,-22.82561758,-22.64542985,-17.98069332,-18.97810152,-18.8026407
-151,-22.41365086,-22.25346925,-24.62936463,-24.41508928,-24.05991934,-23.63701383,-21.12983371,-20.8953721,-20.69363462,-17.83915668,-18.88808332,-18.88962722
-150,-22.39428891,-22.7501355,-25.33034668,-24.16431746,-23.5198633,-22.83177163,-19.43700407,-19.17480556,-18.96230534,-16.96316709,-17.8616652,-17.80165052
-149,-22.27382648,-23.32464489,-25.94064005,-23.79096011,-22.91446577,-22.02480645,-18.05267223,-17.77549348,-17.55610299,-15.7976764,-16.4529236,-16.10997647
-148,-22.0858146,-23.95738805,-26.37209703,-23.40167178,-22.37016014,-21.34549867,-16.99960376,-16.71565318,-16.49240867,-14.93489705,-15.32957854,-14.61221898
-147,-21.87388887,-24.61083101,-26.50791959,-23.0375553,-21.92832587,-20.82882624,-16.25011471,-15.96663064,-15.74373784,-14.62925645,-14.7239662,-13.59071988
-146,-21.6674869,-25.18914932,-26.22386654,-22.6661647,-21.55506484,-20.43947036,-15.749653,-15.47438626,-15.25779802,-14.88919241,-14.61374992,-13.05382119
-145,-21.46773481,-25.50704689,-25.49318536,-22.22205472,-21.17848248,-20.10494336,-15.4289163,-15.17036773,-14.96764869,-15.55289159,-14.85342124,-12.91849204
-144,-21.24773972,-25.34788109,-24.44901252,-21.66659675,-20.73802379,-19.75378836,-15.2148309,-14.98136279,-14.80073012,-16.24490848,-15.18483607,-13.03906196
-143,-20.96484545,-24.63975773,-23.29414002,-21.02277637,-20.22264425,-19.35037283,-15.04388371,-14.8419566,-14.69048109,-16.42080888,-15.24893355,-13.18145049
-142,-20.579781,-23.5357783,-22.18405061,-20.35725033,-19.67045148,-18.90545589,-14.87425631,-14.70673291,-14.58838557,-15.81639466,-14.77497174,-13.06369169
-141,-20.07363107,-22.26712993,-21.19384452,-19.73661614,-19.13595397,-18.45643359,-14.6899601,-14.55565563,-14.4703397,-14.74430273,-13.8477517,-12.55919054
-140,-19.45298226,-20.99731063,-20.33836427,-19.19900546,-18.658494,-18.0384418,-14.49513406,-14.38991549,-14.33403063,-13.65223473,-12.80846816,-11.83649366
-139,-18.74211725,-19.8024506,-19.59975481,-18.75063702,-18.25123652,-17.66855266,-14.30455561,-14.22321038,-14.19123552,-12.79223377,-11.95269797,-11.18794169
-138,-17.97077738,-18.70533989,-18.94867838,-18.37679699,-17.90738347,-17.34706919,-14.13751059,-14.07545113,-14.06167219,-12.24553686,-11.42605466,-10.82293607
-137,-17.16596767,-17.70576442,-18.35882037,-18.05705451,-17.6136408,-17.06833891,-14.01660495,-13.97099833,-13.97086764,-11.9874162,-11.25259732,-10.82555231
-136,-16.34960947,-16.79706714,-17.81494422,-17.77819933,-17.36267974,-16.83196847,-13.96841787,-13.93877711,-13.94979318,-11.90697997,-11.36216164,-11.17792044
-135,-15.53934265,-15.9729328,-17.31418073,-17.54028393,-17.15900907,-16.64798839,-14.02281958,-14.01127792,-14.03347718,-11.82631749,-11.60085506,-11.77041183
-134,-14.74966059,-15.22885116,-16.86183095,-17.35425722,-17.01662434,-16.53423411,-14.21025742,-14.22181657,-14.25809412,-11.58177175,-11.77286359,-12.40777467
-133,-13.99225109,-14.56126752,-16.46489375,-17.2339895,-16.95125269,-16.50879401,-14.55808967,-14.60116557,-14.65774966,-11.14551099,-11.75263903,-12.87109863
-132,-13.27572223,-13.96623523,-16.12657722,-17.18751608,-16.97180489,-16.58183082,-15.08693556,-15.17453234,-15.26201567,-10.64199158,-11.57735207,-13.04879259
-131,-12.605283,-13.43849437,-15.84351362,-17.21104457,-17.0742785,-16.74955105,-15.80679129,-15.95860898,-16.09401096,-10.23489497,-11.38884212,-12.98862031
-130,-11.98277528,-12.97128205,-15.60587859,-17.28720052,-17.23949581,-16.9914301,-16.71135337,-16.95691324,-17.16727283,-10.03066142,-11.30228054,-12.78479409
-129,-11.4071576,-12.55681648,-15.3998465,-17.38807053,-17.43556768,-17.27176427,-17.76809694,-18.14984597,-18.47730475,-10.05563717,-11.3368043,-12.46671196
-128,-10.87533941,-12.18721911,-15.21146771,-17.48311492,-17.6259532,-17.54725892,-18.90230393,-19.47372618,-19.97869261,-10.26555552,-11.4159158,-12.01059519
-127,-10.38318082,-11.85556888,-15.03072896,-17.55017497,-17.7820912,-17.78082929,-19.97981795,-20.78483307,-21.53150088,-10.56166879,-11.41433004,-11.41903638
-126,-9.926463031,-11.55678406,-14.8543831,-17.58480624,-17.89538505,-17.95653597,-20.81225227,-21.83013271,-22.81915737,-10.82282862,-11.24371092,-10.76269354
-125,-9.501663923,-11.28809826,-14.68653264,-17.60253401,-17.98119099,-18.08620751,-21.22168447,-22.31262981,-23.3808492,-10.96307336,-10.92203513,-10.14826815
-124,-9.106429714,-11.04903213,-14.53694813,-17.63282008,-18.07204698,-18.20247269,-21.14229131,-22.10005991,-22.98767073,-10.98165894,-10.55443707,-9.667389485
-123,-8.739708146,-10.84091865,-14.41807376,-17.70886608,-18.2048418,-18.34296865,-20.64584419,-21.33187833,-21.90313267,-10.95381295,-10.25761135,-9.373634188
-122,-8.401585586,-10.66615617,-14.34196321,-17.85839751,-18.40868276,-18.53461466,-19.86468272,-20.25515989,-20.53046121,-10.97406232,-10.10948075,-9.284266683
-121,-8.092926133,-10.5273982,-14.31798179,-18.09754366,-18.6963042,-18.78242774,-18.9194163,-19.06024931,-19.11674928,-11.10866435,-10.14074362,-9.38882129
-120,-7.814930569,-10.4268483,-14.35149427,-18.42689421,-19.05783958,-19.06255913,-17.90101165,-17.85841609,-17.77005878,-11.37848016,-10.34346217,-9.655580695
-119,-7.568717578,-10.36575058,-14.44334765,-18.82797152,-19.45535914,-19.31983577,-16.87713186,-16.7120543,-16.53423682,-11.75901993,-10.67985129,-10.0351008
-118,-7.354993459,-10.34409366,-14.5898497,-19.2596377,-19.82016331,-19.47520246,-15.89798706,-15.65755841,-15.42792907,-12.18631258,-11.08898961,-10.46355713
-117,-7.173837445,-10.36050019,-14.78302698,-19.65710765,-20.06111923,-19.45073705,-14.99882351,-14.71604104,-14.45879503,-12.57109398,-11.49619347,-10.86983778
-116,-7.024599707,-10.41225719,-15.01109373,-19.94030543,-20.09375249,-19.20710055,-14.20191232,-13.8983495,-13.62836149,-12.82890692,-11.82987132,-11.1885692
-115,-6.905892416,-10.4954454,-15.2591934,-20.03770321,-19.8820869,-18.76589333,-13.51912877,-13.20811094,-12.93409068,-12.91884121,-12.04301988,-11.37550522
-114,-6.815648768,-10.6051364,-15.51053727,-19.91815532,-19.45893666,-18.19524374,-12.95472949,-12.6439769,-12.37065207,-12.86161312,-12.12623112,-11.41612609
-113,-6.751226489,-10.73563815,-15.74801794,-19.60612228,-18.90350009,-17.57455075,-12.50778218,-12.2013123,-11.93085303,-12.71936079,-12.10130226,-11.32137909
-112,-6.709536931,-10.88077582,-15.95619712,-19.16552034,-18.30074629,-16.96831116,-12.17400916,-11.8733984,-11.60630978,-12.5582697,-12.00119503,-11.11502802
-111,-6.687185809,-11.03419677,-16.12330802,-18.6685091,-17.71570292,-16.41839957,-11.94705288,-11.65222741,-11.38788939,-12.42324346,-11.85187045,-10.82233048
-110,-6.680615551,-11.18968448,-16.24272385,-18.17343921,-17.18839145,-15.94734338,-11.81927279,-11.52897832,-11.26595947,-12.33097339,-11.66483862,-10.46513317
-109,-6.68624195,-11.34146091,-16.3134059,-17.71845931,-16.73901571,-15.5643861,-11.78219518,-11.49425582,-11.23048567,-12.27335335,-11.43932005,-10.06200454
-108,-6.700579351,-11.48445112,-16.33919339,-17.32431847,-16.37480592,-15.27062886,-11.82671447,-11.53815675,-11.27101307,-12.22444091,-11.16913812,-9.629849033
-107,-6.720349686,-11.61448409,-16.32723982,-16.99958194,-16.09530494,-15.06250655,-11.94311645,-11.65021145,-11.3765627,-12.14895243,-10.84990914,-9.184719923
-106,-6.742571487,-11.72840858,-16.28616007,-16.74513205,-15.89575732,-14.93389798,-12.12097255,-11.81923752,-11.53547287,-12.0121719,-10.48357061,-8.741439185
-105,-6.764626155,-11.82411523,-16.22441132,-16.55727069,-15.76908748,-14.87732057,-12.34894336,-12.03314187,-11.73521984,-11.78988279,-10.07911375,-8.312651352
-104,-6.784300139,-11.90047051,-16.14919401,-16.42964181,-15.70698075,-14.8845593,-12.61453168,-12.27871629,-11.96226545,-11.47488939,-9.650294626,-7.908008069
-103,-6.799803386,-11.95718194,-16.06590912,-16.35435081,-15.70043176,-14.94695677,-12.90384183,-12.54149231,-12.20199891,-11.07713183,-9.212192831,-7.533820299
-102,-6.809766185,-11.99462235,-15.97805668,-16.32258879,-15.73998848,-15.05550263,-13.20143233,-12.80574814,-12.43886015,-10.61795593,-8.778294437,-7.193176286
-101,-6.813218042,-12.01364281,-15.8874167,-16.32497351,-15.81583105,-15.20080721,-13.49038701,-13.05478355,-12.65674011,-10.12234407,-8.358848775,-6.886366968
-100,-6.809553268,-12.0153992,-15.79437455,-16.35174612,-15.91777478,-15.37301579,-13.7527562,-13.27157373,-12.83972656,-9.61284002,-7.960428114,-6.611450385
-99,-6.798488434,-12.00120928,-15.69829568,-16.39291675,-16.03526156,-15.56171035,-13.97049738,-13.43985012,-12.97318399,-9.106564624,-7.586265572,-6.36483867
-98,-6.780016628,-11.97244838,-15.5978936,-16.43842372,-16.15739423,-15.75584621,-14.12693255,-13.54551769,-13.04502453,-8.614754964,-7.236952043,-6.141848276
-97,-6.754362782,-11.93048373,-15.49156234,-16.47835099,-16.27306335,-15.94377874,-14.20852739,-13.57813517,-13.04689054,-8.143658272,-6.911214419,-5.937193961
-96,-6.721943317,-11.8766428,-15.37766066,-16.50322854,-16.37120843,-16.11344069,-14.20655963,-13.53205171,-12.97491323,-7.695863331,-6.606634912,-5.745427553
-95,-6.683332238,-11.81220804,-15.25474341,-16.50441549,-16.44123629,-16.25272516,-14.11813963,-13.40682538,-12.82980246,-7.271580707,-6.320260712,-5.56132872
-94,-6.639234691,-11.73842983,-15.12173961,-16.47453644,-16.47358367,-16.35009908,-13.94620648,-13.20677694,-12.61624152,-6.869691022,-6.049098302,-5.38025262
-93,-6.590468119,-11.65655003,-14.9780787,-16.40791224,-16.46036161,-16.39541225,-13.69850602,-12.93984471,-12.34179362,-6.488537461,-5.790503863,-5.198433302
-92,-6.537950396,-11.56782993,-14.82376849,-16.30090808,-16.39597016,-16.38078482,-13.3859359,-12.61612271,-12.01564841,-6.126498153,-5.542484162,-5.013235742
-91,-6.482693832,-11.47357737,-14.65942965,-16.1521256,-16.27754745,-16.30138517,-13.02079383,-12.24648202,-11.64750779,-5.782386294,-5.303920079,-4.82334607
-90,-6.425803591,-11.37516947,-14.48629353,-15.96239332,-16.10513793,-16.15589339,-12.61535318,-11.84153537,-11.24678242,-5.455720425,-5.074722,-4.628890464
-89,-6.368478864,-11.27406769,-14.30617089,-15.73455535,-15.88153134,-15.94651207,-12.18095191,-11.41102279,-10.82213339,-5.146897993,-4.855924689,-4.431478147
-88,-6.31201494,-11.17182295,-14.1213994,-15.47310339,-15.61181151,-15.67851685,-11.72757177,-10.96356347,-10.38130195,-4.857297308,-4.649729198,-4.234171625
-87,-6.257804226,-11.07006806,-13.93477707,-15.18372528,-15.30272455,-15.35947361,-11.26377696,-10.50666221,-9.931135244,-4.589327344,-4.459500276,-4.041395016
-86,-6.207334038,-10.97049468,-13.74948667,-14.87284753,-14.96200139,-14.99832329,-10.79686346,-10.04685862,-9.477720314,-4.346441107,-4.289728532,-3.858796525
-85,-6.162178734,-10.87481122,-13.56901393,-14.54723141,-14.59774909,-14.60452616,-10.33309953,-9.589933453,-9.026560282,-4.133125479,-4.145966198,-3.693081801
-84,-6.123983398,-10.78467675,-13.39705837,-14.21365547,-14.21797812,-14.18738967,-9.877979569,-9.141117701,-8.582750571,-3.954877595,-4.034742545,-3.551830143
-83,-6.094435672,-10.70160479,-13.23743207,-13.87869028,-13.8302828,-13.75562163,-9.436448669,-8.705274793,-8.151132257,-3.818173842,-3.96345864,-3.44329509
-82,-6.075221621,-10.62682878,-13.09393652,-13.54855232,-13.44165671,-13.31708814,-9.013078922,-8.287043239,-7.736412509,-3.730431079,-3.940249259,-3.376174143
-81,-6.06796044,-10.5611198,-12.97020144,-13.22901323,-13.05840653,-12.878724,-8.612192142,-7.890936206,-7.343249358,-3.69994837,-3.973778768,-3.359306998
-80,-6.074111563,-10.50454597,-12.86946189,-12.92533726,-12.6861242,-12.44653735,-8.237929648,-7.521398825,-6.976301329,-3.735796659,-4.072900448,-3.401222399
-79,-6.094846235,-10.4561651,-12.79423965,-12.64221984,-12.32968161,-12.02565878,-7.894271403,-7.182824725,-6.640242934,-3.847583799,-4.246041549,-3.509390938
-78,-6.130874282,-10.41364938,-12.74588273,-12.38370182,-11.9932193,-11.62039824,-7.585005584,-6.879531936,-6.339745685,-4.044943844,-4.500055976,-3.688942282
-77,-6.182216257,-10.37285862,-12.7239065,-12.15303494,-11.6801072,-11.23428561,-7.31364713,-6.615695519,-6.079421523,-4.336444347,-4.838080673,-3.940464919
-76,-6.247912799,-10.32741294,-12.72507902,-11.95247431,-11.39286125,-10.87008057,-7.083300604,-6.395230473,-5.86372163,-4.727306708,-5.255627975,-4.256369907
-75,-6.325669579,-10.26837205,-12.74222616,-11.78297456,-11.13300384,-10.52974402,-6.89645974,-6.221613989,-5.696778437,-5.214807783,-5.733889406,-4.61539476
-74,-6.411451762,-10.18420209,-12.762842,-11.64377029,-10.90086107,-10.21436833,-6.754734344,-6.097631385,-5.582172373,-5.779532055,-6.229768369,-4.975834056
-73,-6.499072207,-10.06127316,-12.7678424,-11.53183619,-10.69529778,-9.924068255,-6.658496939,-6.025026251,-5.522597893,-6.370710871,-6.665688127,-5.271257647
-72,-6.579867227,-9.885116669,-12.73122846,-11.44125765,-10.51340578,-9.657840016,-6.606449945,-6.00403503,-5.519397296,-6.888599438,-6.931432393,-5.417780209
-71,-6.642619928,-9.642491555,-12.62187877,-11.3626146,-10.35018646,-9.413404346,-6.595134531,-6.032794694,-5.571929951,-7.183433102,-6.91800217,-5.342098984
-70,-6.67395095,-9.323934581,-12.40859657,-11.28259885,-10.19830832,-9.187061634,-6.618440174,-6.106638447,-5.676758176,-7.108820103,-6.580275723,-5.021050577
-69,-6.659394554,-8.926048258,-12.06808529,-11.18422964,-10.04806892,-8.97360299,-6.667231608,-6.217351123,-5.826676207,-6.6230737,-5.97225687,-4.498705075
-68,-6.585236124,-8.452637308,-11.59285976,-11.04811492,-9.887732179,-8.766337644,-6.729275756,-6.352553844,-6.009710331,-5.828858884,-5.211685745,-3.862064363
-67,-6.440867036,-7.914180992,-10.99459046,-10.85504869,-9.70440274,-8.557306701,-6.78968632,-6.495516561,-6.208396161,-4.894936372,-4.416462577,-3.200316562
-66,-6.221020811,-7.325856876,-10.30061785,-10.58967564,-9.485488255,-8.337743418,-6.832037339,-6.62579376,-6.399865319,-3.963788609,-3.669305029,-2.578966148
-65,-5.927066537,-6.704909649,-9.545884368,-10.24412505,-9.220562697,-8.098796987,-6.840064658,-6.721002706,-6.557397841,-3.121099477,-3.014138353,-2.033545808
-64,-5.566800294,-6.068231664,-8.764785474,-9.820027872,-8.903156472,-7.832456333,-6.799515394,-6.759662402,-6.653816059,-2.404879103,-2.464179744,-1.572923485
-63,-5.152811478,-5.43067896,-7.985943093,-9.327843884,-8.53185132,-7.532512591,-6.699448845,-6.724338972,-6.666178062,-1.820274426,-2.009551892,-1.184688922
-62,-4.70008732,-4.80422197,-7.230243588,-8.783778942,-8.110229739,-7.195331693,-6.532455085,-6.603864869,-6.580041848,-1.348537541,-1.622176158,-0.840966189
-61,-4.223681867,-4.197762886,-6.511032405,-8.205719507,-7.645687927,-6.820225223,-6.293914004,-6.393734867,-6.391253813,-0.951178067,-1.260357738,-0.506126942
-60,-3.737018745,-3.617375385,-5.83527174,-7.60973544,-7.147590691,-6.409323435,-5.981163601,-6.094932825,-6.104566561,-0.574432144,-0.876835977,-0.147566639
-59,-3.251000039,-3.066759819,-5.204927717,-7.008008262,-6.625436151,-5.967019144,-5.59363702,-5.712474999,-5.730463146,-0.160100513,-0.432282404,0.252597287
-58,-2.773804498,-2.547776224,-4.618286507,-6.408257557,-6.087550486,-5.499177018,-5.134339725,-5.254875788,-5.282405182,0.335011626,0.089446044,0.690480401
